 BEGIN header
 Number of ions         7
 Number of branches     21
 Number of wavevectors  1
 Frequencies in         cm-1
 IR intensities in      (D/A)**2/amu
 Raman activities in    A**4 amu**(-1)
 Unit cell vectors (A)
   10.000000    0.000000    0.000000
    0.000000   10.000000    0.000000
    0.000000    0.000000   10.000000
 Fractional Co-ordinates
     1     0.000000    0.092283    0.123769   H         1.007940
     2     0.000000    0.907717    0.123769   H         1.007940
     3     0.000000    0.092283    0.876231   H         1.007940
     4     0.000000    0.907717    0.876231   H         1.007940
     5     0.000000    0.000000    0.066748   C        12.010700
     6     0.000000    0.000000    0.933252   C        12.010700
     7     0.100000    0.000000    0.066748   H:mu      0.113429
 END header
     q-pt=    1    0.000000  0.000000  0.000000      1.0000000000
       1   -3507.690333
       2   -3406.857599
       3    -295.722830
       4    -205.564269
       5    -121.437351
       6      -0.086534
       7      -0.072430
       8      -0.049911
       9     755.747481
      10    1028.436033
      11    1124.714362
      12    1158.505679
      13    1183.616729
      14    1332.986682
      15    1384.441992
      16    1621.345550
      17    3167.663872
      18    3189.746402
      19    3281.043303
      20    3296.377333
      21   11659.410304
                        Phonon Eigenvectors
Mode Ion                X                                   Y                                   Z
   1   1 -0.084194815067  0.000000000000      0.032837947561  0.000000000000      0.021641327845  0.000000000000
   1   2  0.084341296904  0.000000000000      0.032899218471  0.000000000000     -0.021620253883  0.000000000000
   1   3  0.038899814154  0.000000000000      0.003604860552  0.000000000000      0.001794348361  0.000000000000
   1   4 -0.038843075123  0.000000000000      0.003571069849  0.000000000000     -0.001772729583  0.000000000000
   1   5 -0.000035460709  0.000000000000     -0.122139950234  0.000000000000      0.000080666565  0.000000000000
   1   6 -0.000026236341  0.000000000000      0.004169405257  0.000000000000      0.000004100042  0.000000000000
   1   7  0.000030522891  0.000000000000      0.982196868025  0.000000000000     -0.000984247645  0.000000000000
   2   1 -0.078349538456  0.000000000000      0.034196860094  0.000000000000     -0.008674309482  0.000000000000
   2   2 -0.078174496024  0.000000000000     -0.034109963690  0.000000000000     -0.008711546442  0.000000000000
   2   3 -0.028934225335  0.000000000000     -0.005989114128  0.000000000000     -0.006100260043  0.000000000000
   2   4 -0.029016873091  0.000000000000      0.005975927388  0.000000000000     -0.006096572764  0.000000000000
   2   5  0.037162387091  0.000000000000     -0.000125044545  0.000000000000     -0.083341335118  0.000000000000
   2   6  0.028023676499  0.000000000000      0.000005009691  0.000000000000     -0.004805570810  0.000000000000
   2   7 -0.030674615144  0.000000000000      0.000977030057  0.000000000000      0.986591999859  0.000000000000
   3   1  0.361250871974  0.000000000000      0.046826389370  0.000000000000     -0.046657189626  0.000000000000
   3   2 -0.361258050371  0.000000000000      0.046809603198  0.000000000000      0.046748640867  0.000000000000
   3   3  0.602724652237  0.000000000000      0.011429551620  0.000000000000      0.018105913642  0.000000000000
   3   4 -0.602722335520  0.000000000000      0.011435736783  0.000000000000     -0.018047600982  0.000000000000
   3   5 -0.000018050586  0.000000000000     -0.050896489891  0.000000000000      0.000134681002  0.000000000000
   3   6 -0.000009566794  0.000000000000      0.011959445047  0.000000000000      0.000121483659  0.000000000000
   3   7 -0.000001640076  0.000000000000      0.006675682906  0.000000000000      0.000011256128  0.000000000000
   4   1 -0.008287003779  0.000000000000      0.278307463078  0.000000000000     -0.220149244423  0.000000000000
   4   2  0.008066637129  0.000000000000      0.278317894996  0.000000000000      0.221226394083  0.000000000000
   4   3  0.003243435788  0.000000000000     -0.273225685724  0.000000000000     -0.202787714621  0.000000000000
   4   4 -0.003195417525  0.000000000000     -0.273274947201  0.000000000000      0.203978921696  0.000000000000
   4   5 -0.000346470775  0.000000000000      0.496106372895  0.000000000000      0.001733284379  0.000000000000
   4   6 -0.000051705636  0.000000000000     -0.515937408254  0.000000000000      0.001741887682  0.000000000000
   4   7 -0.000031920886  0.000000000000      0.056053217177  0.000000000000      0.000157544120  0.000000000000
   5   1 -0.251218110712  0.000000000000     -0.002970809834  0.000000000000     -0.003785363179  0.000000000000
   5   2 -0.251220599373  0.000000000000      0.003413158758  0.000000000000     -0.003916677384  0.000000000000
   5   3  0.258764090152  0.000000000000      0.005588634053  0.000000000000      0.009213070984  0.000000000000
   5   4  0.258778679635  0.000000000000     -0.004815198654  0.000000000000      0.009067557380  0.000000000000
   5   5 -0.780645603890  0.000000000000      0.000883088772  0.000000000000     -0.004636828967  0.000000000000
   5   6  0.353566540921  0.000000000000      0.001180158634  0.000000000000     -0.004046412958  0.000000000000
   5   7 -0.071177489568  0.000000000000      0.000083097757  0.000000000000     -0.007589535781  0.000000000000
   6   1  0.011613920435  0.000000000000      0.188583475857  0.000000000000      0.022443046303  0.000000000000
   6   2  0.011020636757  0.000000000000      0.188714607943  0.000000000000      0.024805037156  0.000000000000
   6   3  0.026836018251  0.000000000000      0.184680594503  0.000000000000      0.021925036496  0.000000000000
   6   4  0.022280678412  0.000000000000      0.184516888694  0.000000000000      0.025815577547  0.000000000000
   6   5  0.042210904130  0.000000000000      0.648567428117  0.000000000000      0.081959498167  0.000000000000
   6   6  0.071227505462  0.000000000000      0.641754611688  0.000000000000      0.081912568081  0.000000000000
   6   7  0.004240899722  0.000000000000      0.063882490230  0.000000000000      0.007797518422  0.000000000000
   7   1  0.119350717316  0.000000000000     -0.022294906390  0.000000000000      0.030638534348  0.000000000000
   7   2  0.119423194754  0.000000000000     -0.020514858869  0.000000000000      0.030260526088  0.000000000000
   7   3  0.266477418620  0.000000000000     -0.019289187269  0.000000000000      0.034576986773  0.000000000000
   7   4  0.267022456662  0.000000000000     -0.022296668208  0.000000000000      0.034015639915  0.000000000000
   7   5  0.443041935401  0.000000000000     -0.073468317737  0.000000000000      0.108428326215  0.000000000000
   7   6  0.768540578429  0.000000000000     -0.072412333824  0.000000000000      0.108349857790  0.000000000000
   7   7  0.044610193552  0.000000000000     -0.007238882566  0.000000000000      0.008205545434  0.000000000000
   8   1 -0.023518945271  0.000000000000     -0.020866687628  0.000000000000      0.185325528484  0.000000000000
   8   2 -0.023384832792  0.000000000000     -0.021795700426  0.000000000000      0.183845846489  0.000000000000
   8   3 -0.048063633082  0.000000000000     -0.019822510344  0.000000000000      0.184879297413  0.000000000000
   8   4 -0.047293606452  0.000000000000     -0.018975893340  0.000000000000      0.183387341855  0.000000000000
   8   5 -0.083880431496  0.000000000000     -0.072068968797  0.000000000000      0.639000418114  0.000000000000
   8   6 -0.138388948502  0.000000000000     -0.068551133981  0.000000000000      0.638948098738  0.000000000000
   8   7 -0.008421745120  0.000000000000     -0.007118289863  0.000000000000      0.062890217152  0.000000000000
   9   1  0.033314450005  0.000000000000     -0.220470894264  0.000000000000      0.431384975534  0.000000000000
   9   2 -0.033342021034  0.000000000000     -0.220434626324  0.000000000000     -0.431450092341  0.000000000000
   9   3  0.052662725162  0.000000000000     -0.236113569939  0.000000000000     -0.434076738060  0.000000000000
   9   4 -0.052678904386  0.000000000000     -0.236010128358  0.000000000000      0.434103837350  0.000000000000
   9   5 -0.000006199438  0.000000000000      0.139620232300  0.000000000000     -0.000050788840  0.000000000000
   9   6  0.000033298730  0.000000000000      0.121125883305  0.000000000000      0.000035806572  0.000000000000
   9   7 -0.000000334006  0.000000000000      0.017451641837  0.000000000000     -0.000007623217  0.000000000000
  10   1  0.614832803082  0.000000000000      0.002870123623  0.000000000000      0.056207288916  0.000000000000
  10   2  0.614838663804  0.000000000000     -0.002845670521  0.000000000000      0.056313337008  0.000000000000
  10   3 -0.119286121574  0.000000000000      0.009135610661  0.000000000000      0.032628379156  0.000000000000
  10   4 -0.119276452579  0.000000000000     -0.009155271958  0.000000000000      0.032735771203  0.000000000000
  10   5 -0.412180401402  0.000000000000     -0.000031349886  0.000000000000     -0.091238168319  0.000000000000
  10   6  0.131477032755  0.000000000000      0.000097185254  0.000000000000      0.031791341443  0.000000000000
  10   7 -0.036288228821  0.000000000000      0.000002760345  0.000000000000      0.094957104509  0.000000000000
  11   1  0.498896953023  0.000000000000      0.088080637294  0.000000000000     -0.182666190859  0.000000000000
  11   2 -0.498952598479  0.000000000000      0.088024419336  0.000000000000      0.182658244492  0.000000000000
  11   3 -0.325914806583  0.000000000000     -0.056226898793  0.000000000000     -0.204106964752  0.000000000000
  11   4  0.326035574317  0.000000000000     -0.056141305484  0.000000000000      0.204018226930  0.000000000000
  11   5  0.000031732484  0.000000000000     -0.247716729171  0.000000000000      0.000006262641  0.000000000000
  11   6 -0.000049979231  0.000000000000      0.222592687467  0.000000000000     -0.000033751455  0.000000000000
  11   7  0.000002390178  0.000000000000      0.082966992184  0.000000000000     -0.000004525067  0.000000000000
  12   1 -0.169984191886  0.000000000000      0.043192140540  0.000000000000     -0.103270284694  0.000000000000
  12   2 -0.170261932341  0.000000000000     -0.043190701306  0.000000000000     -0.103389386197  0.000000000000
  12   3 -0.577525270857  0.000000000000      0.028724059257  0.000000000000      0.052301838003  0.000000000000
  12   4 -0.577379742687  0.000000000000     -0.028659256428  0.000000000000      0.052120216273  0.000000000000
  12   5 -0.051989926606  0.000000000000      0.000088503379  0.000000000000     -0.001054100082  0.000000000000
  12   6  0.482811896323  0.000000000000     -0.000061683634  0.000000000000      0.037258344905  0.000000000000
  12   7  0.001664951365  0.000000000000      0.000033524304  0.000000000000     -0.076338358117  0.000000000000
  13   1 -0.331507869116  0.000000000000      0.061321109772  0.000000000000     -0.334080508450  0.000000000000
  13   2  0.331282513311  0.000000000000      0.061202661980  0.000000000000      0.333891110604  0.000000000000
  13   3  0.161553658827  0.000000000000     -0.091673180143  0.000000000000     -0.324934934093  0.000000000000
  13   4 -0.161841543033  0.000000000000     -0.091432418967  0.000000000000      0.324707420677  0.000000000000
  13   5  0.000015115609  0.000000000000     -0.346608076221  0.000000000000      0.000049084585  0.000000000000
  13   6  0.000128262043  0.000000000000      0.373045408779  0.000000000000      0.000056979546  0.000000000000
  13   7  0.000003766053  0.000000000000     -0.101889721938  0.000000000000     -0.000047130917  0.000000000000
  14   1  0.033470873733  0.000000000000      0.230855549740  0.000000000000     -0.463615576702  0.000000000000
  14   2  0.033465410744  0.000000000000     -0.230841676014  0.000000000000     -0.463542401022  0.000000000000
  14   3  0.101196465098  0.000000000000      0.152586036080  0.000000000000      0.361894862230  0.000000000000
  14   4  0.101184373685  0.000000000000     -0.152567758236  0.000000000000      0.361860594998  0.000000000000
  14   5  0.016240846172  0.000000000000      0.000043849511  0.000000000000     -0.215688001698  0.000000000000
  14   6 -0.093921256077  0.000000000000      0.000130648840  0.000000000000      0.276321391558  0.000000000000
  14   7  0.000181880935  0.000000000000     -0.000000596078  0.000000000000     -0.021386779580  0.000000000000
  15   1  0.058952596497  0.000000000000      0.246270351726  0.000000000000     -0.322958288604  0.000000000000
  15   2  0.058857038505  0.000000000000     -0.246291685296  0.000000000000     -0.323069870806  0.000000000000
  15   3  0.012628489816  0.000000000000     -0.292463364763  0.000000000000     -0.440384154504  0.000000000000
  15   4  0.012677020627  0.000000000000      0.292526739542  0.000000000000     -0.440509003207  0.000000000000
  15   5 -0.043577803906  0.000000000000      0.000152362346  0.000000000000      0.268953222727  0.000000000000
  15   6  0.002683129786  0.000000000000     -0.000228561594  0.000000000000      0.171460442109  0.000000000000
  15   7 -0.003173995079  0.000000000000      0.000039543423  0.000000000000      0.003373960066  0.000000000000
  16   1 -0.050681896550  0.000000000000     -0.189215150483  0.000000000000      0.085988376429  0.000000000000
  16   2 -0.050726029227  0.000000000000      0.189249777365  0.000000000000      0.086019304697  0.000000000000
  16   3 -0.008212575136  0.000000000000     -0.205589848671  0.000000000000     -0.106529270411  0.000000000000
  16   4 -0.008190214081  0.000000000000      0.205649215977  0.000000000000     -0.106605300185  0.000000000000
  16   5  0.026563547463  0.000000000000     -0.000006446266  0.000000000000     -0.623238397863  0.000000000000
  16   6  0.007264752827  0.000000000000     -0.000063812084  0.000000000000      0.639928815250  0.000000000000
  16   7  0.002651817731  0.000000000000      0.000008222591  0.000000000000     -0.048374897445  0.000000000000
  17   1  0.041083034810  0.000000000000     -0.583176991499  0.000000000000     -0.348784574879  0.000000000000
  17   2  0.041036952119  0.000000000000      0.583060218589  0.000000000000     -0.348638455697  0.000000000000
  17   3  0.001681006550  0.000000000000      0.090004262482  0.000000000000     -0.054992914159  0.000000000000
  17   4  0.001683465585  0.000000000000     -0.090020786417  0.000000000000     -0.054982866794  0.000000000000
  17   5 -0.020624881901  0.000000000000      0.000043749481  0.000000000000      0.216547377938  0.000000000000
  17   6 -0.003838742089  0.000000000000      0.000002466788  0.000000000000      0.011321162425  0.000000000000
  17   7 -0.002595124868  0.000000000000      0.000021616939  0.000000000000      0.060405121697  0.000000000000
  18   1  0.003583902189  0.000000000000     -0.084589928071  0.000000000000     -0.047605824777  0.000000000000
  18   2  0.003587273641  0.000000000000      0.084720608742  0.000000000000     -0.047680008903  0.000000000000
  18   3 -0.003672254221  0.000000000000     -0.583045238009  0.000000000000      0.348142900945  0.000000000000
  18   4 -0.003664874358  0.000000000000      0.582823566238  0.000000000000      0.347859092183  0.000000000000
  18   5 -0.001720282854  0.000000000000     -0.000034872862  0.000000000000      0.061022855713  0.000000000000
  18   6  0.001694845183  0.000000000000      0.000071798239  0.000000000000     -0.235510729538  0.000000000000
  18   7  0.000924407431  0.000000000000      0.000000062826  0.000000000000      0.006660573467  0.000000000000
  19   1 -0.032986775751  0.000000000000      0.387932546023  0.000000000000      0.231004679859  0.000000000000
  19   2  0.033007756491  0.000000000000      0.387966692818  0.000000000000     -0.231078095571  0.000000000000
  19   3 -0.003515104722  0.000000000000     -0.417154671047  0.000000000000      0.253644283501  0.000000000000
  19   4  0.003517650912  0.000000000000     -0.417418721672  0.000000000000     -0.253913521444  0.000000000000
  19   5 -0.000002150319  0.000000000000     -0.220700694193  0.000000000000      0.000007626778  0.000000000000
  19   6  0.000000256739  0.000000000000      0.244227755885  0.000000000000      0.000071985313  0.000000000000
  19   7  0.000000203551  0.000000000000     -0.067879755377  0.000000000000     -0.000011783172  0.000000000000
  20   1  0.037118396179  0.000000000000     -0.414862630036  0.000000000000     -0.253381370340  0.000000000000
  20   2 -0.037146779695  0.000000000000     -0.414974660241  0.000000000000      0.253501711299  0.000000000000
  20   3 -0.002256159577  0.000000000000     -0.385870257068  0.000000000000      0.241421981219  0.000000000000
  20   4  0.002260169183  0.000000000000     -0.385915201064  0.000000000000     -0.241537083909  0.000000000000
  20   5  0.000002170764  0.000000000000      0.235445180783  0.000000000000     -0.000025221260  0.000000000000
  20   6  0.000000363059  0.000000000000      0.220965722111  0.000000000000      0.000023086215  0.000000000000
  20   7 -0.000000049121  0.000000000000      0.075766203349  0.000000000000     -0.000005182419  0.000000000000
  21   1  0.002853574523  0.000000000000     -0.000705736843  0.000000000000      0.000262243633  0.000000000000
  21   2  0.002853560399  0.000000000000      0.000706225736  0.000000000000      0.000262298585  0.000000000000
  21   3 -0.001817198463  0.000000000000     -0.000765075092  0.000000000000      0.000164265300  0.000000000000
  21   4 -0.001817209929  0.000000000000      0.000765067886  0.000000000000      0.000164251000  0.000000000000
  21   5  0.090636849230  0.000000000000      0.000000165670  0.000000000000      0.002961496215  0.000000000000
  21   6  0.005792056202  0.000000000000     -0.000000022842  0.000000000000      0.000099984393  0.000000000000
  21   7 -0.995273587674  0.000000000000     -0.000000179573  0.000000000000     -0.033880225636  0.000000000000
